# RELION postprocess; version 3.0.8
# --i cryosparc_P20_J57_002_volume_map_half_A.mrc --i2 cryosparc_P20_J57_002_volume_map_half_B.mrc --angpix 1.067 --mask cryosparc_P20_J57_002_volume_mask_fsc_auto.mrc 

data_general

_rlnFinalResolution                         2.845333
_rlnBfactorUsedForSharpening                0.000000
_rlnUnfilteredMapHalf1                  cryosparc_P20_J57_002_volume_map_half_A.mrc
_rlnUnfilteredMapHalf2                  cryosparc_P20_J57_002_volume_map_half_B.mrc
_rlnMaskName                            cryosparc_P20_J57_002_volume_mask_fsc_auto.mrc
_rlnRandomiseFrom                           4.492632
 

data_fsc

loop_ 
_rlnSpectralIndex #1 
_rlnResolution #2 
_rlnAngstromResolution #3 
_rlnFourierShellCorrelationCorrected #4 
_rlnFourierShellCorrelationUnmaskedMaps #5 
_rlnFourierShellCorrelationMaskedMaps #6 
_rlnCorrectedFourierShellCorrelationPhaseRandomizedMaskedMaps #7 
           0     0.001001   999.000000     1.000000     1.000000     1.000000     1.000000 
           1     0.003905   256.080008     1.000000     0.999999     1.000000     1.000000 
           2     0.007810   128.040004     1.000000     0.999985     1.000000     1.000000 
           3     0.011715    85.360003     1.000000     0.999947     1.000000     1.000000 
           4     0.015620    64.020002     0.999998     0.999798     0.999998     0.999998 
           5     0.019525    51.216002     0.999997     0.999848     0.999997     0.999997 
           6     0.023430    42.680001     0.999994     0.999806     0.999994     0.999994 
           7     0.027335    36.582858     0.999988     0.999753     0.999988     0.999988 
           8     0.031240    32.010001     0.999977     0.999571     0.999977     0.999977 
           9     0.035145    28.453334     0.999966     0.998662     0.999966     0.999966 
          10     0.039050    25.608001     0.999936     0.997718     0.999936     0.999938 
          11     0.042955    23.280001     0.999902     0.995659     0.999902     0.999899 
          12     0.046860    21.340001     0.999898     0.994168     0.999898     0.999896 
          13     0.050765    19.698462     0.999886     0.995091     0.999886     0.999889 
          14     0.054670    18.291429     0.999869     0.995227     0.999869     0.999865 
          15     0.058575    17.072001     0.999838     0.993331     0.999838     0.999825 
          16     0.062480    16.005000     0.999842     0.993734     0.999842     0.999835 
          17     0.066386    15.063530     0.999831     0.993287     0.999831     0.999825 
          18     0.070291    14.226667     0.999841     0.992996     0.999841     0.999835 
          19     0.074196    13.477895     0.999815     0.991524     0.999815     0.999816 
          20     0.078101    12.804000     0.999790     0.991622     0.999790     0.999798 
          21     0.082006    12.194286     0.999791     0.992081     0.999791     0.999790 
          22     0.085911    11.640000     0.999758     0.991297     0.999758     0.999751 
          23     0.089816    11.133913     0.999749     0.990445     0.999749     0.999739 
          24     0.093721    10.670000     0.999690     0.988088     0.999690     0.999666 
          25     0.097626    10.243200     0.999521     0.985987     0.999521     0.999494 
          26     0.101531     9.849231     0.999327     0.983846     0.999327     0.999321 
          27     0.105436     9.484445     0.999223     0.979876     0.999223     0.999228 
          28     0.109341     9.145715     0.999078     0.976580     0.999078     0.999064 
          29     0.113246     8.830345     0.998911     0.972869     0.998911     0.998884 
          30     0.117151     8.536000     0.998737     0.967818     0.998737     0.998743 
          31     0.121056     8.260645     0.998628     0.961204     0.998628     0.998659 
          32     0.124961     8.002500     0.998354     0.955558     0.998354     0.998365 
          33     0.128866     7.760000     0.997919     0.950938     0.997919     0.997913 
          34     0.132771     7.531765     0.997721     0.946431     0.997721     0.997737 
          35     0.136676     7.316572     0.997404     0.938292     0.997404     0.997373 
          36     0.140581     7.113334     0.996941     0.929656     0.996941     0.996901 
          37     0.144486     6.921081     0.996497     0.920155     0.996497     0.996471 
          38     0.148391     6.738948     0.996093     0.909886     0.996093     0.996065 
          39     0.152296     6.566154     0.995433     0.902906     0.995433     0.995386 
          40     0.156201     6.402000     0.994773     0.890617     0.994773     0.994788 
          41     0.160106     6.245854     0.994415     0.886818     0.994415     0.994419 
          42     0.164011     6.097143     0.994428     0.878335     0.994428     0.994362 
          43     0.167916     5.955349     0.994921     0.884565     0.994921     0.994816 
          44     0.171821     5.820000     0.995117     0.888529     0.995117     0.995078 
          45     0.175726     5.690667     0.995211     0.893422     0.995211     0.995202 
          46     0.179631     5.566957     0.995629     0.900886     0.995629     0.995566 
          47     0.183536     5.448511     0.996122     0.907739     0.996122     0.996002 
          48     0.187441     5.335000     0.996338     0.905481     0.996338     0.996185 
          49     0.191346     5.226123     0.996534     0.906255     0.996534     0.996327 
          50     0.195251     5.121600     0.996592     0.902787     0.996592     0.996365 
          51     0.199157     5.021177     0.996349     0.896576     0.996349     0.995990 
          52     0.203062     4.924616     0.995830     0.888690     0.995830     0.995213 
          53     0.206967     4.831698     0.995567     0.877922     0.995567     0.994638 
          54     0.210872     4.742222     0.995214     0.870631     0.995214     0.993722 
          55     0.214777     4.656000     0.994513     0.853269     0.994513     0.991314 
          56     0.218682     4.572857     0.993123     0.829513     0.993123     0.983154 
          57     0.222587     4.492632     0.991093     0.782964     0.991093     0.952676 
          58     0.226492     4.415173     0.989149     0.752642     0.989149     0.849160 
          59     0.230397     4.340339     0.961828     0.709487     0.986771     0.653447 
          60     0.234302     4.268000     0.966043     0.663293     0.984139     0.532920 
          61     0.238207     4.198033     0.962142     0.591576     0.980055     0.473172 
          62     0.242112     4.130323     0.960926     0.540481     0.976154     0.389726 
          63     0.246017     4.064762     0.958835     0.492043     0.972744     0.337887 
          64     0.249922     4.001250     0.951574     0.424173     0.966876     0.316002 
          65     0.253827     3.939692     0.943659     0.374467     0.959468     0.280594 
          66     0.257732     3.880000     0.937422     0.331644     0.952803     0.245780 
          67     0.261637     3.822090     0.926420     0.293127     0.943359     0.230216 
          68     0.265542     3.765882     0.911885     0.248972     0.929118     0.195574 
          69     0.269447     3.711304     0.894602     0.188391     0.912199     0.166960 
          70     0.273352     3.658286     0.874118     0.177130     0.893381     0.153028 
          71     0.277257     3.606761     0.849257     0.138699     0.870860     0.143310 
          72     0.281162     3.556667     0.827868     0.107039     0.850373     0.130745 
          73     0.285067     3.507945     0.810903     0.080836     0.834121     0.122786 
          74     0.288972     3.460541     0.798982     0.078974     0.819068     0.099920 
          75     0.292877     3.414400     0.765299     0.071226     0.787227     0.093427 
          76     0.296782     3.369474     0.730658     0.063330     0.753827     0.086021 
          77     0.300687     3.325714     0.701532     0.043538     0.726579     0.083917 
          78     0.304592     3.283077     0.653609     0.032314     0.681386     0.080190 
          79     0.308497     3.241519     0.589473     0.032386     0.612679     0.056529 
          80     0.312402     3.201000     0.521897     0.019747     0.541032     0.040025 
          81     0.316307     3.161482     0.458378     0.007568     0.474562     0.029880 
          82     0.320212     3.122927     0.412675     0.005013     0.427937     0.025985 
          83     0.324117     3.085301     0.375802     0.003559     0.394899     0.030594 
          84     0.328022     3.048572     0.334257     0.006537     0.353961     0.029597 
          85     0.331928     3.012706     0.278945     0.001544     0.309151     0.041890 
          86     0.335833     2.977675     0.237363     0.006837     0.273310     0.047135 
          87     0.339738     2.943448     0.204553     0.005554     0.233479     0.036365 
          88     0.343643     2.910000     0.202691     -0.00304     0.217288     0.018308 
          89     0.347548     2.877303     0.187664     -0.00846     0.198214     0.012988 
          90     0.351453     2.845333     0.151153     0.006723     0.163886     0.015001 
          91     0.355358     2.814066     0.129187 5.513801e-04     0.150318     0.024265 
          92     0.359263     2.783478     0.125314 -3.89348e-04     0.147123     0.024933 
          93     0.363168     2.753548     0.085269     0.004111     0.107890     0.024730 
          94     0.367073     2.724255     0.054632     -0.00774     0.077196     0.023867 
          95     0.370978     2.695579     0.029638     0.001645     0.052519     0.023580 
          96     0.374883     2.667500     0.036406     0.003296     0.045074     0.008996 
          97     0.378788     2.640000     0.034971     0.007306     0.047438     0.012918 
          98     0.382693     2.613061     0.031292     -0.00124     0.039542     0.008516 
          99     0.386598     2.586667     0.036423     -0.00378     0.034313     -0.00219 
         100     0.390503     2.560800     0.034260     0.001175     0.032729     -0.00158 
         101     0.394408     2.535446     0.045794     0.003397     0.048488     0.002824 
         102     0.398313     2.510588     0.046953     0.004701     0.045190     -0.00185 
         103     0.402218     2.486214     0.027009     0.008754     0.035609     0.008839 
         104     0.406123     2.462308     0.042982     0.007705     0.055925     0.013524 
         105     0.410028     2.438857     0.050187     -0.00224     0.059031     0.009311 
         106     0.413933     2.415849     0.048996     -0.00143     0.051078     0.002189 
         107     0.417838     2.393271     0.029094 -7.36389e-04     0.030503     0.001451 
         108     0.421743     2.371111     0.038478 4.588670e-04     0.035330     -0.00327 
         109     0.425648     2.349358     0.057481     0.004553     0.050005     -0.00793 
         110     0.429553     2.328000     0.059004     0.001995     0.053169     -0.00620 
         111     0.433458     2.307027     0.047334     0.004161     0.040662     -0.00700 
         112     0.437363     2.286429     0.043297     -0.00498     0.037166     -0.00641 
         113     0.441268     2.266195     0.048503     -0.00182     0.044128     -0.00460 
         114     0.445173     2.246316     0.033822     0.001332     0.031032     -0.00289 
         115     0.449078     2.226783     0.022489     -0.00294     0.023110 6.343142e-04 
         116     0.452983     2.207586     0.022830     -0.00311     0.020962     -0.00191 
         117     0.456888     2.188718     0.020291     0.002574     0.017677     -0.00267 
         118     0.460793     2.170170     0.027006     0.005316     0.026570 -4.47716e-04 
         119     0.464699     2.151933     0.029811     0.005036     0.038117     0.008561 
         120     0.468604     2.134000     0.023036     0.004082     0.035557     0.012816 
 

data_guinier

loop_ 
_rlnResolutionSquared #1 
_rlnLogAmplitudesOriginal #2 
_rlnLogAmplitudesWeighted #3 
    0.000000     -5.09642     -5.09642 
1.524926e-05     -4.95300     -4.95300 
6.099702e-05     -5.88903     -5.88903 
1.372433e-04     -6.82012     -6.82012 
2.439881e-04     -7.50510     -7.50510 
3.812314e-04     -7.64702     -7.64703 
5.489732e-04     -7.95822     -7.95822 
7.472135e-04     -8.13202     -8.13202 
9.759524e-04     -8.43310     -8.43311 
    0.001235     -8.95936     -8.95937 
    0.001525     -9.13699     -9.13701 
    0.001845     -9.26126     -9.26129 
    0.002196     -9.38984     -9.38986 
    0.002577     -9.34800     -9.34803 
    0.002989     -9.43373     -9.43376 
    0.003431     -9.53761     -9.53765 
    0.003904     -9.54334     -9.54338 
    0.004407     -9.61077     -9.61082 
    0.004941     -9.61315     -9.61319 
    0.005505     -9.63875     -9.63879 
    0.006100     -9.60326     -9.60331 
    0.006725     -9.60390     -9.60395 
    0.007381     -9.63573     -9.63579 
    0.008067     -9.69142     -9.69149 
    0.008784     -9.75335     -9.75343 
    0.009531     -9.82347     -9.82359 
    0.010308     -9.87784     -9.87801 
    0.011117     -9.93933     -9.93952 
    0.011955     -9.99451     -9.99474 
    0.012825    -10.03455    -10.03483 
    0.013724    -10.11832    -10.11864 
    0.014655    -10.18341    -10.18375 
    0.015615    -10.24294    -10.24335 
    0.016606    -10.29587    -10.29639 
    0.017628    -10.32124    -10.32181 
    0.018680    -10.35858    -10.35923 
    0.019763    -10.40165    -10.40241 
    0.020876    -10.43928    -10.44016 
    0.022020    -10.47835    -10.47933 
    0.023194    -10.52223    -10.52337 
    0.024399    -10.55196    -10.55328 
    0.025634    -10.56744    -10.56884 
    0.026900    -10.56765    -10.56905 
    0.028196    -10.52668    -10.52795 
    0.029523    -10.48513    -10.48636 
    0.030880    -10.43459    -10.43579 
    0.032267    -10.37542    -10.37651 
    0.033686    -10.33588    -10.33685 
    0.035134    -10.34038    -10.34130 
    0.036613    -10.31396    -10.31483 
    0.038123    -10.29894    -10.29980 
    0.039663    -10.31564    -10.31656 
    0.041234    -10.34404    -10.34509 
    0.042835    -10.35256    -10.35367 
    0.044467    -10.36552    -10.36672 
    0.046129    -10.41349    -10.41487 
    0.047822    -10.49978    -10.50151 
    0.049545    -10.59097    -10.59321 
    0.051298    -10.65486    -10.65759 
    0.053083    -10.71294    -10.72276 
    0.054897    -10.77545    -10.78416 
    0.056742    -10.86868    -10.87842 
    0.058618    -10.92657    -10.93663 
    0.060524    -10.97187    -10.98249 
    0.062461    -11.03250    -11.04506 
    0.064428    -11.07323    -11.08794 
    0.066426    -11.10350    -11.11992 
    0.068454    -11.12996    -11.14944 
    0.070513    -11.17231    -11.19590 
    0.072602    -11.20325    -11.23187 
    0.074721    -11.21240    -11.24717 
    0.076871    -11.23805    -11.28057 
    0.079052    -11.26114    -11.31059 
    0.081263    -11.27388    -11.32903 
    0.083505    -11.27839    -11.33764 
    0.085777    -11.26886    -11.34019 
    0.088080    -11.27154    -11.35612 
    0.090413    -11.28191    -11.37834 
    0.092776    -11.27973    -11.39726 
    0.095171    -11.26883    -11.41822 
    0.097595    -11.26862    -11.45716 
    0.100050    -11.26764    -11.49976 
    0.102536    -11.25898    -11.52769 
    0.105052    -11.24812    -11.55041 
    0.107599    -11.23594    -11.58148 
    0.110176    -11.22819    -11.64300 
    0.112783    -11.21409    -11.69309 
    0.115422    -11.20598    -11.74592 
    0.118090    -11.19780    -11.74154 
    0.120789    -11.18344    -11.75941 
    0.123519    -11.16834    -11.83688 
    0.126279    -11.16106    -11.89848 
    0.129070    -11.14327    -11.89419 
    0.131891    -11.13110    -12.05641 
    0.134742    -11.12864    -12.26223 
    0.137625    -11.11453    -12.54191 
    0.140537    -11.10125    -12.42907 
    0.143480    -11.08517    -12.43240 
    0.146454    -11.07524    -12.47627 
    0.149458    -11.06710    -12.39469 
    0.152493    -11.05041    -12.40757 
    0.155558    -11.04090    -12.25852 
    0.158653    -11.03001    -12.23568 
    0.161779    -11.01705    -12.48960 
    0.164936    -11.00651    -12.25446 
    0.168123    -11.00084    -12.17475 
    0.171341    -10.99036    -12.17571 
    0.174589    -10.98517    -12.42155 
    0.177867    -10.97094    -12.27208 
    0.181176    -10.95856    -12.06808 
    0.184516    -10.94517    -12.04233 
    0.187886    -10.93380    -12.13562 
    0.191287    -10.93179    -12.17625 
    0.194718    -10.91641    -12.10658 
    0.198179    -10.90825    -12.27164 
    0.201671    -10.90491    -12.46681 
    0.205194    -10.89520    -12.44976 
    0.208747    -10.84505    -12.45730 
    0.212331    -11.05892    -12.53152 
    0.215945    -12.61872    -14.04327 
    0.219589    -13.61531    -15.16548 
 
